Общее время (s);Пройденное время цикла (s);Всего циклов;Пройденным циклам;Шаг;Общее количество циклов(8800 (0,1) Форма волны);Общее количество циклов(8800 (0,2) Форма волны);Положение(8800 (0,1):Положение) (mm);Нагрузка(8800 (0,1):Нагрузка) (kN);Вращение(8800 (0,2):Вращение) (deg);Крутящий момент(8800 (0,2):Крутящий момент) (N·m);Напряжение(8800 (0,1):Нагрузка) (MPa);Напряжение сдвига(8800 (0,2):Крутящий момент) (MPa);;;;
0;0;1;1;1;1;1;-61.34391076;-0.004334152;-43.95258129;0.0370536;-0.038711609;0.03616779;0;0;0;
0.0025;0.0025;1;1;1;1;1;-61.3437096;-0.005858094;-43.95520985;0.037875026;-0.052323093;0.03696958;0.000201166;-0.002628565;-4.58539E-05;
0.005;0.005;1;1;1;1;1;-61.34391523;-0.006694049;-43.95531714;0.026601367;-0.059789645;0.02596543;-4.47035E-06;-0.002735853;-4.77254E-05;
0.01;0.01;1;1;1;1;1;-61.34466178;-0.009250045;-43.95202607;-0.006916001;-0.082619193;-0.006750666;-0.000751019;0.000555217;9.68546E-06;
0.02;0.02;1;1;1;1;1;-61.34476907;-0.005002618;-43.95345837;-0.005631708;-0.044682189;-0.005497075;-0.000858307;-0.000877082;-1.53002E-05;
0.1425;0.1425;1;1;1;1;1;-61.34256519;0.122687072;-43.95261079;-0.017437153;1.095811643;-0.017020297;0.001345575;-2.95043E-05;-5.14686E-07;
0.195;0.195;1;1;1;1;1;-61.34033896;0.235069692;-43.95189196;-0.015462749;2.099586389;-0.015093094;0.003571808;0.000689328;1.20249E-05;
0.2425;0.2425;1;1;1;1;1;-61.33845694;0.352537483;-43.95561755;-0.047784299;3.148780663;-0.046641959;0.005453825;-0.003036261;-5.29659E-05;
0.2875;0.2875;1;1;1;1;1;-61.33668221;0.469549745;-43.95207435;-0.044602901;4.193906264;-0.043536616;0.007228554;0.000506938;8.84324E-06;
0.3275;0.3275;1;1;1;1;1;-61.33441127;0.583019108;-43.95290047;-0.068929046;5.207387528;-0.067281217;0.009499491;-0.000319183;-5.56797E-06;
0.37;0.37;1;1;1;1;1;-61.33282877;0.699172616;-43.95273685;-0.061198138;6.244842944;-0.059735125;0.011081994;-0.000155568;-2.7138E-06;
0.4125;0.4125;1;1;1;1;1;-61.330683;0.814091116;-43.95462781;-0.066922046;7.271267562;-0.065322197;0.013227761;-0.002046525;-3.57005E-05;
0.4525;0.4525;1;1;1;1;1;-61.32825113;0.931841582;-43.95306945;-0.112727284;8.322986621;-0.110032407;0.015659631;-0.000488162;-8.51572E-06;
0.4925;0.4925;1;1;1;1;1;-61.32618583;1.051977873;-43.95310968;-0.107800588;9.396015299;-0.105223489;0.017724932;-0.000528395;-9.21756E-06;
0.5325;0.5325;1;1;1;1;1;-61.32430382;1.166666001;-43.95245254;-0.08302927;10.42038229;-0.081044359;0.019606949;0.000128746;2.2459E-06;
0.575;0.575;1;1;1;1;1;-61.32181383;1.283718199;-43.95269662;-0.124082901;11.46586458;-0.121116554;0.022096933;-0.000115335;-2.01195E-06;
0.615;0.615;1;1;1;1;1;-61.32025368;1.399629563;-43.95559877;-0.121321529;12.50115723;-0.118421197;0.023657084;-0.003017485;-5.26384E-05;
0.6575;0.6575;1;1;1;1;1;-61.31768323;1.520525217;-43.95771235;-0.104684383;13.58096836;-0.102181781;0.026227535;-0.005131066;-8.95086E-05;
0.7;0.7;1;1;1;1;1;-61.31581462;1.637570262;-43.94922853;-0.120775774;14.62638676;-0.117888489;0.028096141;0.003352761;5.84871E-05;
0.74;0.74;1;1;1;1;1;-61.31318606;1.749665439;-43.95662069;-0.133964233;15.62759413;-0.130761662;0.030724705;-0.004039407;-7.04652E-05;
0.785;0.785;1;1;1;1;1;-61.31162591;1.866099536;-43.95472705;-0.145808794;16.6675557;-0.142323065;0.032284857;-0.002145767;-3.74317E-05;
0.8225;0.8225;1;1;1;1;1;-61.3093952;1.987629831;-43.95418525;-0.180270523;17.75303529;-0.175960946;0.034515561;-0.001603961;-2.79802E-05;
0.865;0.865;1;1;1;1;1;-61.30758024;2.107437849;-43.95667434;-0.177097507;18.82313191;-0.172863785;0.036330523;-0.004093051;-7.1401E-05;
0.9;0.9;1;1;1;1;1;-61.30576975;2.22091794;-43.95367563;-0.150894746;19.836709;-0.147287432;0.038141014;-0.001094341;-1.90902E-05;
0.9375;0.9375;1;1;1;1;1;-61.30326188;2.339843214;-43.95272076;-0.156381167;20.89892116;-0.152642694;0.040648879;-0.000139475;-2.43306E-06;
0.98;0.98;1;1;1;1;1;-61.3008926;2.454912961;-43.95325452;-0.181957148;21.92669668;-0.17760725;0.043018164;-0.000673234;-1.17442E-05;
1.02;1.02;1;1;1;1;1;-61.29902399;2.571465075;-43.95390898;-0.187798403;22.96771235;-0.183308864;0.04488677;-0.001327693;-2.31609E-05;
1.065;1.065;1;1;1;1;1;-61.29674859;2.685342729;-43.95482898;-0.233090483;23.98484038;-0.227518183;0.047162177;-0.002247691;-3.92097E-05;
1.11;1.11;1;1;1;1;1;-61.29483528;2.798018157;-43.95562559;-0.233815983;24.99123042;-0.22822634;0.049075486;-0.003044307;-5.31062E-05;
1.1525;1.1525;1;1;1;1;1;-61.29281021;2.910728455;-43.95586699;-0.239294022;25.99793189;-0.23357342;0.051100554;-0.003285706;-5.73173E-05;
1.1925;1.1925;1;1;1;1;1;-61.29065103;3.023836017;-43.95518839;-0.234294683;27.00818164;-0.228693595;0.053259732;-0.002607107;-4.54795E-05;
1.2325;1.2325;1;1;1;1;1;-61.2886662;3.143536747;-43.95349324;-0.261235982;28.07731999;-0.254990832;0.055244567;-0.000911951;-1.59085E-05;
1.2725;1.2725;1;1;1;1;1;-61.28699876;3.25853765;-43.95173371;-0.245440751;29.10448062;-0.239573204;0.056912007;0.000847578;1.47855E-05;
1.315;1.315;1;1;1;1;1;-61.28390975;3.372639716;-43.95273149;-0.247382559;30.12361304;-0.241468591;0.060001018;-0.000150204;-2.62022E-06;
1.36;1.36;1;1;1;1;1;-61.28200538;3.492616117;-43.95467877;-0.26092492;31.19521362;-0.254687206;0.061905387;-0.002097487;-3.65895E-05;
1.4025;1.4025;1;1;1;1;1;-61.27934999;3.606230319;-43.95535737;-0.273137353;32.20998855;-0.266607687;0.064560774;-0.002776086;-4.84273E-05;
1.475;1.475;1;1;1;1;1;-61.27557255;3.824268878;-43.95403236;-0.310768373;34.15745693;-0.303339093;0.068338218;-0.001451075;-2.53132E-05;
1.52;1.52;1;1;1;1;1;-61.2718398;3.952472508;-43.95402431;-0.304760411;35.30254116;-0.297474759;0.072070959;-0.001443028;-2.51728E-05;
1.5625;1.5625;1;1;1;1;1;-61.27048082;4.069717526;-43.95496309;-0.30823797;36.34974568;-0.300869182;0.073429945;-0.002381802;-4.15492E-05;
1.6025;1.6025;1;1;1;1;1;-61.26788355;4.18397218;-43.95238549;-0.321802683;37.37024098;-0.314109615;0.076027218;0.000195801;3.41564E-06;
1.6475;1.6475;1;1;1;1;1;-61.26580483;4.298176467;-43.95226479;-0.354789197;38.39028642;-0.346307548;0.07810593;0.000316501;5.52118E-06;
1.6925;1.6925;1;1;1;1;1;-61.26373953;4.418385029;-43.95487189;-0.345388427;39.4639606;-0.337131515;0.080171231;-0.002290606;-3.99584E-05;
1.7375;1.7375;1;1;1;1;1;-61.26112438;4.530969262;-43.95400017;-0.375392847;40.4695361;-0.366418643;0.082786385;-0.001418889;-2.47517E-05;
1.78;1.78;1;1;1;1;1;-61.2594927;4.645889699;-43.95547539;-0.361780636;41.49597802;-0.353131848;0.084418062;-0.002894104;-5.0486E-05;
1.8325;1.8325;1;1;1;1;1;-61.25610418;4.761094451;-43.95770162;-0.40123146;42.52495937;-0.391639555;0.087806586;-0.005120337;-8.93214E-05;
1.8775;1.8775;1;1;1;1;1;-61.25402994;4.875184596;-43.95544857;-0.416144729;43.54398531;-0.406196304;0.089880828;-0.002867281;-5.00181E-05;
1.925;1.925;1;1;1;1;1;-61.2516383;4.993354082;-43.95807177;-0.431706198;44.59944696;-0.421385758;0.092272464;-0.005490482;-9.57784E-05;
1.97;1.97;1;1;1;1;1;-61.24922878;5.108610988;-43.95615667;-0.43664407;45.62889414;-0.426205585;0.094681982;-0.003575385;-6.23706E-05;
2.0075;2.0075;1;1;1;1;1;-61.24710984;5.220651627;-43.95763189;-0.445523299;46.62961439;-0.434872546;0.096800927;-0.0050506;-8.81049E-05;
2.05;2.05;1;1;1;1;1;-61.24446339;5.337948203;-43.95474046;-0.421960838;47.67727941;-0.411873373;0.099447374;-0.002159178;-3.76657E-05;
2.0925;2.0925;1;1;1;1;1;-61.24256796;5.45060277;-43.9579913;-0.440759584;48.68348312;-0.430222713;0.101342801;-0.005410016;-9.43747E-05;
2.14;2.14;1;1;1;1;1;-61.24060548;5.563353896;-43.95901591;-0.433803536;49.69054927;-0.423432957;0.103305284;-0.006434619;-0.000112248;
2.185;2.185;1;1;1;1;1;-61.2373153;5.681928396;-43.95567387;-0.465268269;50.74962841;-0.454145489;0.106595461;-0.003092587;-5.39485E-05;
2.23;2.23;1;1;1;1;1;-61.23537517;5.797734261;-43.95754606;-0.469033606;51.78397875;-0.457820812;0.108535592;-0.004964769;-8.66076E-05;
2.275;2.275;1;1;1;1;1;-61.23276896;5.911033154;-43.95801544;-0.493733212;52.79593742;-0.481929945;0.111141805;-0.005434155;-9.47958E-05;
2.3275;2.3275;1;1;1;1;1;-61.23045332;6.029898524;-43.95443201;-0.47078263;53.85761454;-0.459528023;0.113457446;-0.001850724;-3.22849E-05;
2.365;2.365;1;1;1;1;1;-61.22839249;6.143342257;-43.95479411;-0.509400852;54.87086689;-0.497223031;0.115518277;-0.002212822;-3.86015E-05;
2.41;2.41;1;1;1;1;1;-61.22546888;6.257535815;-43.9544186;-0.48514735;55.8908165;-0.473549337;0.118441884;-0.001837313;-3.20509E-05;
2.45;2.45;1;1;1;1;1;-61.22362263;6.376051903;-43.95727247;-0.484922901;56.94937391;-0.473330254;0.120288138;-0.004691184;-8.18351E-05;
2.49;2.49;1;1;1;1;1;-61.22130698;6.488515735;-43.95655364;-0.512701459;57.95387401;-0.500444734;0.122603779;-0.003972352;-6.92955E-05;
2.5325;2.5325;1;1;1;1;1;-61.21891982;6.603136063;-43.95475656;-0.521897338;58.97763543;-0.509420775;0.124990945;-0.002175272;-3.79464E-05;
2.5775;2.5775;1;1;1;1;1;-61.2165863;6.718455553;-43.9572376;-0.512746163;60.0076416;-0.500488368;0.127324467;-0.004656315;-8.12268E-05;
2.6225;2.6225;1;1;1;1;1;-61.21434665;6.833215952;-43.95195365;-0.515501015;61.03265409;-0.503177363;0.129564112;0.000627637;1.09488E-05;
2.67;2.67;1;1;1;1;1;-61.21189243;6.954517961;-43.95727783;-0.555749983;62.11609468;-0.542464132;0.132018333;-0.004696548;-8.19287E-05;
2.7175;2.7175;1;1;1;1;1;-61.20869166;7.073165774;-43.95302117;-0.54912921;63.17582864;-0.536001637;0.135219103;-0.000439882;-7.6735E-06;
2.7625;2.7625;1;1;1;1;1;-61.20617933;7.186591625;-43.95153791;-0.559081323;64.18892127;-0.545715833;0.137731438;0.001043379;1.82012E-05;
2.8075;2.8075;1;1;1;1;1;-61.20406485;7.298874855;-43.95375878;-0.560811721;65.19180828;-0.547404863;0.139845913;-0.00117749;-2.05407E-05;
2.8575;2.8575;1;1;1;1;1;-61.2017358;7.420088649;-43.95698011;-0.582653098;66.27446096;-0.568724097;0.142174965;-0.004398823;-7.6735E-05;
2.9025;2.9025;1;1;1;1;1;-61.19859314;7.533937693;-43.95564437;-0.620231964;67.29133345;-0.605404596;0.14531762;-0.003063083;-5.34338E-05;
2.945;2.945;1;1;1;1;1;-61.19621939;7.647251487;-43.95379364;-0.609382056;68.30342521;-0.594814068;0.147691375;-0.001212358;-2.11489E-05;
2.9975;2.9975;1;1;1;1;1;-61.19381881;7.763421535;-43.95624518;-0.60004089;69.34102836;-0.585696214;0.150091952;-0.003663898;-6.39147E-05;
3.0475;3.0475;1;1;1;1;1;-61.19121707;7.876791954;-43.95897299;-0.640739687;70.35362588;-0.625422058;0.152693695;-0.006391704;-0.0001115;
3.095;3.095;1;1;1;1;1;-61.18848122;7.990377545;-43.96195561;-0.621033832;71.36814528;-0.606187295;0.155429548;-0.009374321;-0.00016353;
3.19;3.19;1;1;1;1;1;-61.1831615;8.215345144;-43.9564839;-0.63413661;73.37750218;-0.618976835;0.160749263;-0.003902614;-6.80789E-05;
3.2375;3.2375;1;1;1;1;1;-61.18060446;8.333594799;-43.9564383;-0.636324286;74.43367988;-0.621112213;0.163306302;-0.003857017;-6.72835E-05;
3.285;3.285;1;1;1;1;1;-61.17819941;8.446666598;-43.9572832;-0.653253868;75.4436102;-0.637637074;0.16571135;-0.004701912;-8.20222E-05;
3.3375;3.3375;1;1;1;1;1;-61.17565579;8.566160202;-43.95923048;-0.648980029;76.51089855;-0.633465405;0.168254978;-0.006649196;-0.000115992;
3.3825;3.3825;1;1;1;1;1;-61.17354578;8.680790663;-43.95634711;-0.675236806;77.53475047;-0.659094484;0.170364983;-0.003765821;-6.56927E-05;
3.425;3.425;1;1;1;1;1;-61.17053724;8.795924187;-43.95551562;-0.664063729;78.56309563;-0.648188512;0.173373527;-0.002934337;-5.11879E-05;
3.475;3.475;1;1;1;1;1;-61.16816795;8.90832901;-43.95675212;-0.677793287;79.56706869;-0.661589849;0.175742812;-0.004170835;-7.27579E-05;
3.52;3.52;1;1;1;1;1;-61.16601324;9.021965265;-43.95472437;-0.679592602;80.5820406;-0.663346149;0.17789752;-0.002143085;-3.73849E-05;
3.5625;3.5625;1;1;1;1;1;-61.16293764;9.139448404;-43.95441055;-0.70349779;81.63137196;-0.686679856;0.18097312;-0.001829267;-3.19105E-05;
3.6125;3.6125;1;1;1;1;1;-61.16035825;9.254399538;-43.95670384;-0.716908835;82.65808805;-0.699770294;0.183552511;-0.004122555;-7.19157E-05;
3.665;3.665;1;1;1;1;1;-61.15764475;9.367958307;-43.95288706;-0.715774484;83.67236787;-0.698663061;0.186266012;-0.000305772;-5.33402E-06;
3.7175;3.7175;1;1;1;1;1;-61.15445739;9.482910633;-43.95516694;-0.71459543;84.69909461;-0.697512193;0.189453371;-0.002585649;-4.51052E-05;
3.7675;3.7675;1;1;1;1;1;-61.15244127;9.597151279;-43.95356834;-0.717722811;85.7194648;-0.700564811;0.191469498;-0.000987053;-1.72186E-05;
3.8225;3.8225;1;1;1;1;1;-61.14944166;9.712976813;-43.95570338;-0.709473155;86.75399083;-0.692512373;0.194469102;-0.003122091;-5.44631E-05;
3.87;3.87;1;1;1;1;1;-61.14754623;9.828129411;-43.95715714;-0.712604262;87.78250635;-0.695568627;0.19636453;-0.004575849;-7.98231E-05;
3.9225;3.9225;1;1;1;1;1;-61.14415324;9.945029616;-43.95674676;-0.725528225;88.82663109;-0.708183628;0.199757524;-0.004165471;-7.26643E-05;
3.9775;3.9775;1;1;1;1;1;-61.14159173;10.0572145;-43.95760775;-0.741588883;89.82863968;-0.723860337;0.202319034;-0.00502646;-8.76838E-05;
4.0275;4.0275;1;1;1;1;1;-61.13836861;10.17118692;-43.95680845;-0.718558207;90.84661418;-0.701380236;0.205542155;-0.004227161;-7.37405E-05;
4.0825;4.0825;1;1;1;1;1;-61.13507396;10.28567076;-43.95941019;-0.739894807;91.86915646;-0.72220676;0.208836802;-0.006828904;-0.000119126;
4.135;4.135;1;1;1;1;1;-61.13325453;10.40171027;-43.9580074;-0.736299902;92.90559371;-0.718697795;0.210656234;-0.005426109;-9.46555E-05;
4.1875;4.1875;1;1;1;1;1;-61.12976766;10.51657438;-43.95716518;-0.71230717;93.93153254;-0.695278637;0.214143106;-0.004583895;-7.99635E-05;
4.24;4.24;1;1;1;1;1;-61.12738496;10.6321454;-43.95767212;-0.740753487;94.96378532;-0.723044912;0.216525802;-0.005090833;-8.88067E-05;
4.29;4.29;1;1;1;1;1;-61.12524367;10.74999094;-43.95525277;-0.738501549;96.01635352;-0.720846809;0.218667099;-0.00267148;-4.66025E-05;
4.3425;4.3425;1;1;1;1;1;-61.12158245;10.86532116;-43.95577043;-0.769336708;97.04645551;-0.750944818;0.222328314;-0.003189147;-5.56329E-05;
4.425;4.425;1;1;1;1;1;-61.11740714;11.04350686;-43.95610839;-0.785147771;98.63796767;-0.766377899;0.22650362;-0.003527105;-6.15284E-05;
4.4825;4.4825;1;1;1;1;1;-61.11389345;11.15924835;-43.96027923;-0.758301467;99.67174305;-0.740173387;0.230017314;-0.00769794;-0.000134286;
4.5375;4.5375;1;1;1;1;1;-61.11102796;11.27129436;-43.95663142;-0.761774369;100.6725112;-0.743563265;0.232882807;-0.004050136;-7.06524E-05;
4.5975;4.5975;1;1;1;1;1;-61.10809988;11.38841748;-43.95716518;-0.763460062;101.718627;-0.74520866;0.235810885;-0.004583895;-7.99635E-05;
4.6525;4.6525;1;1;1;1;1;-61.10512263;11.5041244;-43.95849556;-0.761550851;102.7520936;-0.743345091;0.238788137;-0.005914271;-0.000103171;
4.71;4.71;1;1;1;1;1;-61.1012066;11.61731601;-43.95694792;-0.779511407;103.763094;-0.760876279;0.242704163;-0.004366636;-7.61735E-05;
4.7675;4.7675;1;1;1;1;1;-61.09856462;11.73088431;-43.95791888;-0.754067674;104.777459;-0.736040808;0.245346139;-0.005337596;-9.31114E-05;
4.83;4.83;1;1;1;1;1;-61.09485871;11.84410691;-43.95588309;-0.773822889;105.7887363;-0.755323751;0.249052058;-0.003301799;-5.75981E-05;
4.89;4.89;1;1;1;1;1;-61.0922659;11.95687056;-43.95474851;-0.752933323;106.7959142;-0.734933575;0.25164486;-0.002167225;-3.7806E-05;
4.9525;4.9525;1;1;1;1;1;-61.08886844;12.07005262;-43.95758629;-0.76486636;107.8068294;-0.746581338;0.255042325;-0.005005002;-8.73095E-05;
5.015;5.015;1;1;1;1;1;-61.08532792;12.18976617;-43.95349592;-0.754427165;108.8760822;-0.736391705;0.258582841;-0.000914633;-1.59553E-05;
5.0775;5.0775;1;1;1;1;1;-61.08173376;12.30763674;-43.95223796;-0.743348151;109.928874;-0.725577548;0.262177001;0.000343323;5.98907E-06;
5.135;5.135;1;1;1;1;1;-61.07795185;12.42111087;-43.95457685;-0.775402412;110.9423979;-0.756865514;0.265958916;-0.001995564;-3.48115E-05;
5.2075;5.2075;1;1;1;1;1;-61.07426828;12.53437877;-43.9561218;-0.740036368;111.9540797;-0.722344937;0.269642483;-0.003540516;-6.17623E-05;
5.285;5.285;1;1;1;1;1;-61.06981134;12.64722943;-43.9539814;-0.730940141;112.962035;-0.713466165;0.274099421;-0.001400113;-2.44242E-05;
5.3575;5.3575;1;1;1;1;1;-61.0659892;12.76482105;-43.95570606;-0.729002059;114.0123352;-0.711574415;0.277921569;-0.003124774;-5.45099E-05;
5.425;5.425;1;1;1;1;1;-61.06161272;12.88233995;-43.95361662;-0.722730532;115.061986;-0.705452817;0.28229804;-0.001035333;-1.80608E-05;
5.5025;5.5025;1;1;1;1;1;-61.0574106;13.00059319;-43.95772576;-0.730060041;116.1181957;-0.712607105;0.286500167;-0.005144477;-8.97425E-05;
5.6075;5.6075;1;1;1;1;1;-61.05134433;13.11362505;-43.9574039;-0.742524862;117.1277693;-0.724773941;0.29256643;-0.004822612;-8.41278E-05;
5.6925;5.6925;1;1;1;1;1;-61.04709303;13.22667241;-43.95678699;-0.704001635;118.1374813;-0.687171656;0.296817732;-0.004205704;-7.33662E-05;
5.805;5.805;1;1;1;1;1;-61.04100442;13.33867908;-43.95745218;-0.70256833;119.1378981;-0.685772616;0.302906347;-0.004870892;-8.497E-05;
5.9175;5.9175;1;1;1;1;1;-61.0339055;13.45129013;-43.949714;-0.688734464;120.1437132;-0.672269465;0.31000526;0.002867281;5.00181E-05;
6.0525;6.0525;1;1;1;1;1;-61.0262478;13.56373072;-43.95363539;-0.701207668;121.1480057;-0.684444481;0.317662967;-0.001054108;-1.83883E-05;
6.1925;6.1925;1;1;1;1;1;-61.01868397;13.67731333;-43.95571947;-0.75460691;122.1624985;-0.736567153;0.325226797;-0.003138185;-5.47439E-05;
6.3825;6.3825;1;1;1;1;1;-61.0083664;13.79107594;-43.95598769;-0.733351335;123.178599;-0.715819717;0.335544361;-0.003406405;-5.94229E-05;
6.56;6.56;1;1;1;1;1;-60.99939441;13.9037776;-43.95647585;-0.721463002;124.1852233;-0.704215589;0.344516351;-0.003894567;-6.79386E-05;
6.7175;6.7175;1;1;1;1;1;-60.99142825;14.01928782;-43.95562023;-0.76207798;125.2169331;-0.743859618;0.352482512;-0.003038943;-5.30127E-05;
6.9;6.9;1;1;1;1;1;-60.98052954;14.13245797;-43.9545688;-0.767773949;126.2277418;-0.749419418;0.363381222;-0.001987517;-3.46711E-05;
7.1225;7.1225;1;1;1;1;1;-60.96808409;14.28040028;-43.95503283;-0.783486292;127.5491272;-0.764756139;0.375826672;-0.002451539;-4.27657E-05;
7.3125;7.3125;1;1;1;1;1;-60.95746701;14.39291477;-43.95652413;-0.780438073;128.5540798;-0.761780792;0.38644375;-0.003942847;-6.87808E-05;
7.5125;7.5125;1;1;1;1;1;-60.94679629;14.50937986;-43.95733684;-0.79308264;129.5943182;-0.774123075;0.397114472;-0.004755557;-8.2958E-05;
7.7;7.7;1;1;1;1;1;-60.93612557;14.62282538;-43.95599574;-0.825102441;130.6075865;-0.805377406;0.407785194;-0.003414452;-5.95632E-05;
7.8975;7.8975;1;1;1;1;1;-60.92539673;14.73508358;-43.95722151;-0.833816826;131.6102499;-0.813883464;0.41851403;-0.004640222;-8.09461E-05;
8.1575;8.1575;1;1;1;1;1;-60.91085916;14.87179279;-43.95377487;-0.84641017;132.831304;-0.826175749;0.433051603;-0.001193583;-2.08214E-05;
8.41;8.41;1;1;1;1;1;-60.89683568;14.98972297;-43.95444542;-0.856881961;133.8846281;-0.8363972;0.447075087;-0.001864135;-3.25188E-05;
8.665;8.665;1;1;1;1;1;-60.8833084;15.10916352;-43.95380706;-0.872002915;134.9514427;-0.851156669;0.460602362;-0.00122577;-2.13829E-05;
8.92;8.92;1;1;1;1;1;-60.86966937;15.22316694;-43.95644099;-0.856242143;135.969694;-0.835772677;0.474241395;-0.003859699;-6.73303E-05;
9.1725;9.1725;1;1;1;1;1;-60.85679029;15.33582449;-43.9545849;-0.902272761;136.9759243;-0.88070288;0.487120469;-0.00200361;-3.49519E-05;
9.445;9.445;1;1;1;1;1;-60.84184145;15.44875503;-43.95475924;-0.915358774;137.9845929;-0.893476057;0.502069315;-0.002177954;-3.79932E-05;
9.6975;9.6975;1;1;1;1;1;-60.828189;15.56168079;-43.95479679;-0.932627358;138.993219;-0.910331814;0.515721759;-0.002215505;-3.86482E-05;
9.985;9.985;1;1;1;1;1;-60.8130524;15.6736815;-43.9561218;-0.965356827;139.9935825;-0.942278847;0.530858359;-0.003540516;-6.17623E-05;
10.29;10.29;1;1;1;1;1;-60.79598461;15.78868985;-43.95374537;-0.952811912;141.0208097;-0.930033833;0.54792615;-0.001164079;-2.03067E-05;
10.59;10.59;1;1;1;1;1;-60.77922975;15.90127587;-43.95338595;-0.988460146;142.0264012;-0.964829855;0.564681016;-0.000804663;-1.40369E-05;
10.945;10.945;1;1;1;1;1;-60.76105331;16.02878094;-43.95601451;-1.015805639;143.165246;-0.991521622;0.582857453;-0.003433228;-5.98907E-05;
11.25;11.25;1;1;1;1;1;-60.74447726;16.14093661;-43.9561379;-1.001217403;144.1669937;-0.977282134;0.599433506;-0.003556609;-6.20431E-05;
11.7225;11.7225;1;1;1;1;1;-60.71857159;16.28979921;-43.95755678;-1.012889668;145.4965989;-0.988675361;0.625339175;-0.004975498;-8.67948E-05;
